,x_value,y_value,peak_num,time_gap,frequencies(HZ)
3,0.122434,429,1,,
5,0.148783,400,1,0.026348999999999997,37.952104444191434
7,0.174985,447,1,0.026202000000000003,38.16502557056713
9,0.202607,428,1,0.027622000000000008,36.203026573021496
11,0.229778,402,1,0.027171,36.80394538294505
13,0.256786,446,1,0.027008000000000004,37.02606635071089
15,0.282802,433,1,0.026015999999999984,38.43788437884381
18,0.334391,442,1,0.051588999999999996,19.383977204442807
20,0.361086,426,1,0.026695000000000024,37.46019853905222
23,0.414186,444,1,0.05309999999999998,18.832391713747654
25,0.441392,430,1,0.027206000000000008,36.75659780930676
28,0.493326,442,1,0.05193399999999998,19.25520853390843
30,0.519157,428,1,0.025830999999999993,38.713174093143905
33,0.572347,440,1,0.05319000000000007,18.800526414739586
35,0.599262,431,1,0.02691499999999991,37.154003343860424
38,0.651232,442,1,0.05197000000000007,19.241870309794084
40,0.677587,429,1,0.026355000000000017,37.94346423828493
43,0.728972,441,1,0.0513849999999999,19.460932178651394
45,0.754937,428,1,0.025965000000000016,38.51338340073173
49,0.834248,429,1,0.07931100000000002,12.608591494244175
53,0.913388,429,1,0.07913999999999999,12.63583522870862
55,0.939032,405,1,0.025644,38.99547652472313
57,0.96531,441,1,0.026278000000000024,38.05464647233424
59,0.99159,429,1,0.02627999999999997,38.05175038051755
61,1.017008,407,1,0.02541799999999994,39.34219844204903
63,1.043765,440,1,0.026757000000000142,37.37339761557703
65,1.069793,427,1,0.02602799999999994,38.42016290149079
68,1.121001,440,1,0.05120799999999992,19.528198718950193
70,1.146882,427,1,0.025881000000000043,38.63838337003973
73,1.200456,440,1,0.05357400000000001,18.6657707096726
75,1.226873,427,1,0.026417000000000135,37.854411931710445
78,1.279831,441,1,0.05295799999999984,18.882888326598493
80,1.306481,429,1,0.026650000000000063,37.52345215759841
84,1.384941,432,1,0.07845999999999997,12.745347947998985
87,1.437879,442,1,0.05293799999999993,18.890022290226327
89,1.464782,431,1,0.02690300000000012,37.17057577221854
92,1.517133,440,1,0.052351000000000036,19.101831865675905
94,1.543737,429,1,0.02660399999999985,37.588332581566895
97,1.597509,442,1,0.05377200000000015,18.597039351335216
99,1.624907,431,1,0.027398000000000033,36.49901452660774
102,1.677645,439,1,0.05273799999999995,18.961659524441597
104,1.704175,430,1,0.026529999999999943,37.69317753486627
107,1.75749,437,1,0.053315,18.756447528838038
109,1.785006,431,1,0.027516000000000096,36.34249164122679
112,1.835767,439,1,0.050760999999999834,19.700163511357207
114,1.861427,430,1,0.025660000000000016,38.97116134060793
117,1.913556,438,1,0.05212900000000009,19.18318018761147
119,1.939957,431,1,0.026400999999999897,37.877353130563385
122,1.994909,438,1,0.05495200000000011,18.197699810743885
124,2.02138,430,1,0.026471000000000133,37.777190132597745
126,2.048781,408,1,0.027400999999999787,36.49501842998459
128,2.075173,440,1,0.02639199999999997,37.890269778720864
130,2.102064,430,1,0.026890999999999998,37.18716299133539
133,2.153997,439,1,0.05193300000000001,19.25557930410336
135,2.17974,431,1,0.02574299999999985,38.84551140115782
137,2.205718,412,1,0.02597800000000028,38.494110401108216
139,2.232293,440,1,0.026574999999999793,37.62935089369738
141,2.25855,431,1,0.026257000000000197,38.085082073351586
144,2.311462,435,1,0.05291200000000007,18.89930450559417
146,2.338413,429,1,0.026950999999999947,37.10437460576609
149,2.390824,431,1,0.05241099999999976,19.079964129667523
151,2.417487,430,1,0.026663000000000103,37.50515695908173
154,2.469639,432,1,0.052151999999999976,19.17472004908729
156,2.496373,429,1,0.026734000000000258,37.40555098376563
158,2.548846,429,1,0.05247299999999999,19.057420006479525
160,2.575229,428,1,0.026383000000000045,37.90319523935861
163,2.62773,429,1,0.05250099999999991,19.047256242738268
165,2.654685,433,1,0.026955000000000062,37.09886848451114
168,2.708419,438,1,0.05373399999999995,18.610190940559068
170,2.735169,427,1,0.02674999999999983,37.38317757009369
173,2.787316,423,1,0.052147000000000165,19.176558574798104
175,2.814078,433,1,0.02676199999999973,37.366415066138934
178,2.86669,426,1,0.052612000000000325,19.007070630274345
180,2.893158,427,1,0.026467999999999936,37.78147196614789
182,2.945282,429,1,0.05212400000000006,19.185020336121536
184,2.973108,430,1,0.027825999999999684,35.93761230503886
187,3.02583,433,1,0.05272200000000016,18.967413982777533
189,3.052328,428,1,0.026498000000000133,37.73869726017039
192,3.10538,424,1,0.053051999999999655,18.84943074719156
194,3.132478,427,1,0.027098000000000066,36.90309247914966
196,3.185841,437,1,0.05336300000000005,18.739576110788356
198,3.212585,428,1,0.02674399999999988,37.39156446305731
201,3.265346,430,1,0.05276100000000028,18.953393605124898
203,3.291022,430,1,0.02567599999999981,38.94687646050816
206,3.343829,427,1,0.05280700000000005,18.93688336773532
208,3.370147,431,1,0.02631799999999984,37.99680826810571
211,3.422832,437,1,0.052685000000000315,18.980734554427144
213,3.449032,429,1,0.02619999999999978,38.16793893129803
216,3.500426,427,1,0.05139400000000016,19.457524224617597
218,3.526977,431,1,0.02655099999999999,37.663364845015266
220,3.553126,411,1,0.026148999999999756,38.24238020574436
222,3.578374,429,1,0.02524800000000038,39.60709759188787
224,3.60459,431,1,0.026215999999999795,38.14464449191363
226,3.657545,424,1,0.05295499999999986,18.883958077613116
228,3.684511,420,1,0.026966000000000268,37.08373507379626
230,3.736519,425,1,0.05200799999999983,19.227811105983758
232,3.763082,430,1,0.026562999999999892,37.646350186349586
235,3.815473,433,1,0.052391000000000076,19.087247809738287
237,3.841299,432,1,0.025825999999999905,38.72066909316207
239,3.89431,427,1,0.05301100000000014,18.86400935654859
241,3.92093,432,1,0.026619999999999866,37.565740045079075
244,3.973395,433,1,0.052465000000000206,19.060325931573356
246,3.998416,431,1,0.025021000000000182,39.96642820031145
249,4.052412,431,1,0.053996000000000155,18.519890362249
251,4.078654,434,1,0.026241999999999877,38.10685161192
253,4.131437,432,1,0.0527829999999998,18.94549381429634
255,4.158318,428,1,0.026881000000000377,37.20099698671872
257,4.211281,423,1,0.052962999999999205,18.88110567754876
259,4.238328,431,1,0.027047000000000487,36.97267719155477
262,4.29216,429,1,0.05383199999999988,18.576311487591067
264,4.318336,428,1,0.02617600000000042,38.20293398532946
267,4.371574,426,1,0.05323799999999945,18.7835756414593
269,4.397758,433,1,0.026183999999999763,38.19126183929151
272,4.451118,430,1,0.05336000000000052,18.740629685157238
274,4.478484,430,1,0.02736599999999978,36.54169407293752
277,4.530332,429,1,0.05184799999999967,19.287147045209196
279,4.556904,433,1,0.026572000000000706,37.633599277433895
282,4.609855,430,1,0.052950999999999304,18.885384600857645
284,4.636529,431,1,0.026674000000000753,37.48969033515677
286,4.690231,424,1,0.05370199999999947,18.621280399240433
288,4.716348,434,1,0.026117000000000168,38.289236895508424
291,4.769263,428,1,0.0529149999999996,18.89823301521322
293,4.794993,430,1,0.025730000000000253,38.86513797123941
296,4.847365,427,1,0.052372000000000085,19.094172458565616
298,4.873441,433,1,0.026075999999999766,38.34944009817491
301,4.92606,429,1,0.05261899999999997,19.00454208555846
303,4.952961,435,1,0.026901000000000508,37.173339281066916
305,5.007036,432,1,0.054075000000000095,18.492834026814577
307,5.034195,431,1,0.027159000000000155,36.82020692956274
309,5.087883,431,1,0.05368799999999929,18.6261361943081
311,5.11546,432,1,0.027576999999999963,36.26210247670165
313,5.167931,424,1,0.0524710000000006,19.058146404680464
315,5.194316,431,1,0.026384999999999437,37.90032215273911
318,5.247584,434,1,0.05326800000000009,18.772996921228472
320,5.275101,432,1,0.027517000000000458,36.341170912526195
322,5.327706,426,1,0.05260499999999979,19.009599847923276
324,5.354869,431,1,0.027162999999999826,36.814784817582975
326,5.407605,430,1,0.05273600000000034,18.962378640776578
328,5.434308,433,1,0.026702999999999477,37.44897577051341
331,5.48747,429,1,0.053162000000000376,18.810428501561134
333,5.514397,433,1,0.0269269999999997,37.137445686486096
336,5.566889,432,1,0.05249199999999998,19.050521984302375
338,5.594331,431,1,0.027442000000000633,36.440492675460135
341,5.64793,432,1,0.053598999999999286,18.657064497472216
343,5.673254,432,1,0.025324000000000346,39.48823250671246
345,5.726794,425,1,0.05353999999999992,18.677624206201
347,5.753134,432,1,0.026340000000000252,37.96507213363669
350,5.805738,431,1,0.05260399999999965,19.009961219679237
352,5.83362,431,1,0.027881999999999962,35.8654328957751
354,5.887394,427,1,0.053773999999999766,18.596347677316256
356,5.915149,433,1,0.027755000000000862,36.02954422626442
358,5.966912,433,1,0.05176299999999934,19.31881846106317
360,5.99393,431,1,0.027017999999999986,37.01236212895109
362,6.048081,432,1,0.05415100000000006,18.46687965134529
364,6.075555,431,1,0.027473999999999776,36.398049064570436
366,6.127874,429,1,0.05231900000000067,19.11351516657404
368,6.154647,433,1,0.02677299999999949,37.35106263773275
370,6.207274,431,1,0.0526270000000002,19.00165314382344
372,6.233317,430,1,0.026043000000000482,38.398034020657434
375,6.286925,435,1,0.053607999999999656,18.653932248918192
377,6.314779,436,1,0.0278539999999996,35.90148632153423
379,6.366557,431,1,0.051778000000000546,19.313221831665754
381,6.392768,434,1,0.026210999999999984,38.151920949219814
383,6.446321,435,1,0.05355299999999996,18.673090209698817
385,6.47325,434,1,0.02692899999999998,37.13468751160462
387,6.525566,426,1,0.05231600000000025,19.114611208807922
389,6.55271,427,1,0.027143999999999835,36.84055408193362
391,6.60559,426,1,0.05288000000000004,18.910741301058987
393,6.651566,433,1,0.04597599999999957,21.750478510527433
395,6.712097,434,1,0.06053100000000011,16.520460590441232
397,6.738846,431,1,0.02674899999999969,37.38457512430415
399,6.791121,436,1,0.05227500000000074,19.12960306073622
401,6.818033,435,1,0.02691199999999938,37.15814506539919
403,6.870762,434,1,0.05272900000000025,18.964895977545474
405,6.906093,434,1,0.03533100000000022,28.303755908408867
407,6.95791,432,1,0.05181699999999978,19.29868575949986
409,6.984918,432,1,0.027008000000000365,37.0260663507104
411,7.03766,434,1,0.0527419999999994,18.960221455386815
413,7.065685,435,1,0.02802500000000041,35.68242640499502
415,7.117042,433,1,0.05135699999999943,19.471542340869036
417,7.143901,435,1,0.026858999999999966,37.23146803678474
419,7.195992,432,1,0.052091000000000776,19.197174175961013
421,7.222025,431,1,0.026032999999999973,38.41278377444017
423,7.275127,433,1,0.05310199999999998,18.831682422507633
425,7.301993,433,1,0.026866000000000057,37.22176728951083
427,7.354785,433,1,0.052791999999999284,18.942263979391075
429,7.382036,433,1,0.02725100000000058,36.69590106784994
431,7.432728,436,1,0.05069199999999974,19.726978615955282
433,7.460012,435,1,0.027283999999999864,36.65151737281942
435,7.51272,435,1,0.05270799999999998,18.97245199969645
437,7.539714,433,1,0.026994000000000185,37.045269319107696
439,7.591241,434,1,0.0515270000000001,19.407301026646188
441,7.618265,432,1,0.027023999999999937,37.00414446418007
443,7.669844,430,1,0.051579000000000264,19.387735318637333
445,7.696593,430,1,0.02674899999999969,37.38457512430415
447,7.748682,349,1,0.05208899999999961,19.197911267254266
449,7.828078,435,1,0.07939600000000002,12.59509295178598
451,7.854556,435,1,0.026478,37.76720296094871
453,7.907524,432,1,0.05296800000000079,18.879323365050315
455,7.934234,435,1,0.026709999999999567,37.43916136278608
457,7.987344,431,1,0.05311000000000021,18.82884579175289
459,8.015305,432,1,0.02796099999999946,35.764099996424285
461,8.069781,433,1,0.05447600000000108,18.356707540935094
463,8.097105,436,1,0.027324000000000126,36.597862684819034
465,8.15038,433,1,0.053274999999999295,18.770530267480304
467,8.177452,435,1,0.02707200000000043,36.938534278959224
469,8.231416,431,1,0.05396399999999879,18.530872433474585
471,8.258405,436,1,0.026989000000000374,37.05213235021624
473,8.310676,433,1,0.05227100000000107,19.13106693960283
475,8.336719,435,1,0.026042999999999594,38.39803402065874
